t [s],error [m],run_obj,accum_obj
0.0001,4.242640687119285,1824.6499999999994,182.46499999999995
0.0011,4.242576370754703,1824.5954261686145,364.9245426168614
0.0111,4.241868770648042,1823.9950667399128,547.3240492908527
0.0611,4.2383325372089455,1820.996269596402,729.4236762504929
0.1111,4.234799254336492,1818.8910868846071,911.3127849389537
0.16110000000000002,4.16089395167306,1754.052462741307,1086.7180312130845
0.2111,4.074657330605561,1680.0922371142624,1254.7272549245108
0.2611,3.983144454032037,1603.8704894081525,1415.114303865326
0.3111,3.887156437556469,1526.0342567829,1567.717729543616
0.3611,3.7872019398308576,1447.027495637904,1712.4204791074064
0.41109999999999997,3.684231863740833,1368.6740720082084,1849.2878863082274
0.46109999999999995,3.5793598043754824,1291.218245300711,1978.4097108382985
0.5111,3.4728097033735272,1214.7772542343314,2099.8874362617316
0.5611,3.365050753406534,1140.3529043051706,2213.9227266922485
0.6111000000000001,3.256642399347276,1067.8673239116495,2320.7094590834135
0.6611000000000001,3.147719217182645,997.6428929677865,2420.4737483801923
0.7111000000000002,3.038476685568883,929.6153658469082,2513.435284964883
0.7611000000000002,2.928986846733399,863.9679168436481,2599.832076649248
0.8111000000000003,2.819341490181942,800.6410400902616,2679.8961806582743
0.8611000000000003,2.7095776823812288,739.7507215595807,2753.8712528142323
0.9111000000000004,2.5997429193788704,681.2405900792558,2821.995311822158
0.9611000000000004,2.4898546601512805,625.187592444513,2884.514071066609
1.0111000000000003,2.379937329935241,571.5436980821464,2941.668440874824
1.0611000000000004,2.2699933949582776,520.3033550228392,2993.6987763771076
1.1111000000000004,2.160030985465815,471.52809232248285,3040.851585609356
1.1611000000000005,2.050061649111345,425.1757156189511,3083.369157171251
1.2111000000000005,1.9400809900922527,381.1922952348902,3121.4883866947403
1.2611000000000006,1.8300892298032865,339.62081230053957,3155.4504679247943
1.3111000000000006,1.7200906928758628,300.46682348925196,3185.4971502737194
1.3611000000000006,1.6100915814146113,263.7337883086201,3211.8705291045812
1.4111000000000007,1.5000995336890461,229.42337968573793,3234.812867073155
1.4611000000000007,1.3901241428678635,197.5402018495803,3254.5668872581127
1.5111000000000008,1.280181021497301,168.05770619980652,3271.3726578780934
1.5611000000000008,1.1702971475805084,141.0215633458953,3285.4748142126828
1.6111000000000009,1.060532912443816,116.28704145886398,3297.103518358569
1.661100000000001,0.9510538551728444,94.16797319413111,3306.520315677982
1.711100000000001,0.8422192716002561,74.00317181171305,3313.9206328591536
1.761100000000001,0.7354879612115756,56.462596104414175,3319.566892469595
1.811100000000001,0.6476925670648644,43.74464168288311,3323.9413566378835
1.861100000000001,0.5664562664690352,32.98833818619092,3327.2401904565027
1.9111000000000011,0.5201891338258506,28.068479827091533,3330.047038439212
1.9611000000000012,0.4780829544231339,24.022218536240068,3332.449260292836
2.011100000000001,0.45082841605096236,21.787680179041942,3334.62802831074
2.061100000000001,0.4249620271815668,19.868818245594852,3336.6149101352994
2.111100000000001,0.39908898345550614,18.374666530246547,3338.4523767883243
2.1611000000000007,0.36449217361265,15.120997194727286,3339.964476507797
2.2111000000000005,0.33484676685098674,12.470856685351306,3341.211562176332
2.2611000000000003,0.31264359431348737,10.536331052791166,3342.265195281611
2.3111,0.30272649976474153,9.643292439670933,3343.229524525578
2.3611,0.2988778089563777,9.264670930729862,3344.155991618651
2.4111,0.3008182021623961,9.269884684205346,3345.0829800870715
2.4610999999999996,0.3040333595762239,9.564495220229025,3346.0394296090944
2.5110999999999994,0.3084939859550868,10.038238507583356,3347.0432534598526
2.5610999999999993,0.3143663809298481,10.608100708203908,3348.104063530673
2.611099999999999,0.31490164943548854,10.941972550898885,3349.198260785763
2.661099999999999,0.3148264823259444,11.285244489734012,3350.3267852347367
2.7110999999999987,0.3147454453329092,11.881064497236009,3351.5148916844605
2.7610999999999986,0.2993267811613291,10.40985663008686,3352.555877347469
2.8110999999999984,0.28683585960338354,9.187536363500048,3353.474630983819
2.861099999999998,0.27940622875009063,8.372499762993716,3354.3118809601187
2.911099999999998,0.27760379362617765,8.061493431869604,3355.1180303033057
2.961099999999998,0.2793486887202053,8.073753167544206,3355.9254056200602
3.0110999999999977,0.284452686619355,8.304151653445109,3356.755820785405
3.0610999999999975,0.28761222473160086,8.614230248084214,3357.6172438102135
3.1110999999999973,0.29101304983121107,9.02306477584723,3358.519550287798
3.161099999999997,0.2950169903767772,9.464411639832825,3359.4659914517815
3.211099999999997,0.2935163601671219,9.641960495966465,3360.430187501378
3.261099999999997,0.29133761019446497,9.811332269546163,3361.4113207283326
3.3110999999999966,0.28905799185594244,10.214440437226397,3362.432764772055
3.3610999999999964,0.2731292657696598,8.830665355147275,3363.31583130757
3.4110999999999962,0.26010145468357154,7.679832996574819,3364.0838146072274
3.461099999999996,0.25203235830122817,6.893047594200273,3364.7731193666473
3.511099999999996,0.24971718210461477,6.5731191666922735,3365.4304312833165
3.5610999999999957,0.25090178378414213,6.540641118339179,3366.0844953951505
3.6110999999999955,0.2553993999244963,6.698181179753441,3366.754313513126
3.6610999999999954,0.25846782251870215,6.956262342845066,3367.4499397474106
3.711099999999995,0.2618627654836195,7.305920785615456,3368.180531825972
3.761099999999995,0.2658926677325395,7.683914957224946,3368.9489233216946
3.811099999999995,0.2650179867383845,7.857664345531397,3369.734689756248
3.8610999999999946,0.2635548605773333,8.02650481468928,3370.5373402377168
3.9110999999999945,0.2620234206357144,8.400131354140212,3371.377353373131
3.9610999999999943,0.24798808274756703,7.273024139158219,3372.104655787047
4.011099999999995,0.23655637242399166,6.327509218740829,3372.737406708921
4.061099999999994,0.2301947561206594,5.7592218046103945,3373.313328889382
4.111099999999994,0.22793411216474335,5.489164779026656,3373.8622453672847
4.161099999999994,0.2298047422453182,5.434641636707997,3374.4057095309554
4.211099999999994,0.2325379208593217,5.5910118251950225,3374.964810713475
4.261099999999994,0.23624907099757736,5.869146358059208,3375.551725349281
4.3110999999999935,0.24105994824583074,6.290783366371289,3376.180803685918
4.361099999999993,0.23376670426563723,5.791804633359683,3376.759984149254
4.411099999999993,0.2278168602082285,5.3993871178214015,3377.299922861036
4.461099999999993,0.2246979080596588,5.196557749504859,3377.8195786359865
4.511099999999993,0.22440973595323555,5.213989141712724,3378.3409775501577
4.561099999999993,0.22622935817107062,5.394983873583802,3378.880475937516
4.611099999999992,0.23007247135649173,5.671575732827307,3379.447633510799
4.661099999999992,0.2322655267377387,5.95248470312331,3380.0428819811113
4.711099999999992,0.2345250387835466,6.2730273044943665,3380.670184711561
4.761099999999992,0.2371232429574964,6.781947456858445,3381.3483794572467
4.811099999999992,0.22892711185461734,6.070201257774473,3381.9553995830242
4.8610999999999915,0.22268140955727456,5.490365001252417,3382.5044360831494
4.911099999999991,0.21979477092480465,5.1317870650049455,3383.01761478965
4.961099999999991,0.22005362933696804,5.043011759144784,3383.5219159655644
5.011099999999991,0.22252987531627616,5.139249069719087,3384.0358408725365
5.061099999999991,0.22711628219309482,5.341487762166615,3384.569989648753
5.111099999999991,0.22953280765491046,5.571737790987573,3385.127163427852
5.1610999999999905,0.23195641091181685,5.853361782484496,3385.7124996061
5.21109999999999,0.23471210240581017,6.2789083943423405,3386.3403904455345
5.26109999999999,0.2249556606055149,5.601100459888037,3386.9005004915234
5.31109999999999,0.21693457353239815,5.046082839243683,3387.405108775448
5.36109999999999,0.21229120926223946,4.6097701648652265,3387.8660857919344
5.41109999999999,0.21235455035363643,4.659838656454576,3388.3320696575797
5.461099999999989,0.21282464080064292,4.769787370111774,3388.8090483945907
5.511099999999989,0.21342121455312346,5.010545586712549,3389.310102953262
5.561099999999989,0.21056008760924275,4.737473136756803,3389.7838502669374
5.611099999999989,0.20929496430846167,4.574045364423034,3390.24125480338
5.661099999999989,0.21006547458293026,4.5429393303420325,3390.695548736414
5.7110999999999885,0.21198606313223195,4.656455578504405,3391.1611942942645
5.761099999999988,0.2149825420000581,4.879570666530143,3391.6491513609176
5.811099999999988,0.2190467781970835,5.231998554615607,3392.172351216379
5.861099999999988,0.21344616627785654,4.850850653430233,3392.657436281722
5.911099999999988,0.2090730516909136,4.558866610984104,3393.11332294282
5.961099999999988,0.207119137142344,4.3733259052471745,3393.550655533345
6.0110999999999875,0.20736955004436117,4.3997354382313665,3393.9906290771683
6.061099999999987,0.2081106493559246,4.487500989432582,3394.4393791761113
6.111099999999987,0.20925881422819365,4.6855068150013075,3394.9079298576116
6.161099999999987,0.20697030316348597,4.488989073877843,3395.3568287649996
6.211099999999987,0.20597144953852276,4.385185263244769,3395.795347291324
6.261099999999987,0.20669236708759142,4.395952707368801,3396.234942562061
6.311099999999986,0.20845240847222898,4.528238591904674,3396.6877664212516
6.361099999999986,0.21120198525263337,4.758050841244606,3397.1635715053762
6.411099999999986,0.21493090398459927,5.122258145273495,3397.6757973199037
6.461099999999986,0.20973086027595716,4.742169950031685,3398.150014314907
6.511099999999986,0.20578531496107158,4.449253297205797,3398.5949396446276
6.5610999999999855,0.20419907112191538,4.308518157449654,3399.0257914603726
6.611099999999985,0.20476339175456376,4.3398384657274836,3399.459775306945
6.661099999999985,0.20702378282018802,4.504645558633246,3399.9102398628083
6.711099999999985,0.21091257633057328,4.738746011392281,3400.3841144639478
6.761099999999985,0.21282617542369545,4.966405576761662,3400.880755021624
6.811099999999985,0.2146887363446696,5.223736328629387,3401.403128654487
6.861099999999984,0.2167839608519655,5.636465334498006,3401.9667751879365
6.911099999999984,0.20858750823402872,5.01821096201993,3402.4685962841386
6.961099999999984,0.20217431790161822,4.5131733089398205,3402.919913615033
7.011099999999984,0.19891625901552942,4.08819726996675,3403.3287333420294
7.061099999999984,0.19900477117214815,4.143729599955479,3403.743106302025
7.1110999999999835,0.19939061125976276,4.249498657528815,3404.1680561677776
7.161099999999983,0.19991511840080858,4.488508952036793,3404.616907062981
7.211099999999983,0.19809163796688037,4.252616273625068,3405.0421686903437
7.261099999999983,0.19769585284083896,4.113093617019272,3405.4534780520457
7.311099999999983,0.19903051590442314,4.038795741026645,3405.8573576261483
7.361099999999983,0.19804801893077723,4.019737508925575,3406.259331377041
7.4110999999999825,0.19760410186396368,4.059739583731059,3406.665305335414
7.461099999999982,0.19804317641149163,4.222795440127113,3407.0875848794267
7.511099999999982,0.19764073034694302,4.105948942884484,3407.498179773715
7.561099999999982,0.19817684319748283,4.063760576069469,3407.904555831322
7.611099999999982,0.19980401046582305,4.105202129108235,3408.3150760442327
7.661099999999982,0.20183956567809813,4.240358106116735,3408.7391118548444
7.711099999999981,0.2044788373056942,4.45260706312265,3409.1843725611566
7.761099999999981,0.20773806884764046,4.778747609061262,3409.6622473220627
7.811099999999981,0.20137581288389356,4.372260154858229,3410.0994733375487
7.861099999999981,0.19632848947474604,4.053330084329925,3410.5048063459817
7.911099999999981,0.19380787651719777,3.8267193890567897,3410.8874782848875
7.9610999999999805,0.19404453442659553,3.8582942531775735,3411.2733077102052
8.011099999999981,0.19469751143767433,3.987555884005325,3411.6720632986057
8.061099999999982,0.1933252513512423,3.873621874730437,3412.059425486079
8.111099999999983,0.1930598137213411,3.838410941355515,3412.4432665802146
8.161099999999983,0.19408663759683023,3.907959154964923,3412.8340624957114
8.211099999999984,0.19633962143389747,4.081375495649817,3413.242200045276
8.261099999999985,0.19415544470345636,3.9240612922506153,3413.634606174501
8.311099999999985,0.19289014616483233,3.838491511312197,3414.018455325632
8.361099999999986,0.19312580407059146,3.8624706765693424,3414.404702393289
8.411099999999987,0.19489477040120753,3.9941247659960664,3414.8041148698885
8.461099999999988,0.19348865684201902,3.879550758229252,3415.1920699457114
8.511099999999988,0.19288803098843532,3.833488747330546,3415.5754188204446
8.561099999999989,0.1935766918049163,3.8869340647920367,3415.9641122269236
8.61109999999999,0.19559270168958778,4.045463284342003,3416.368658555358
8.66109999999999,0.19378404677221428,3.905406148974825,3416.759199170255
8.711099999999991,0.1928550227075925,3.8363472022632834,3417.1428338904816
8.761099999999992,0.19333324438673138,3.872025906277754,3417.530036481109
8.811099999999993,0.19525248230070605,4.013569638626298,3417.931393444972
8.861099999999993,0.1936364878945054,3.888672570673158,3418.3202607020394
8.911099999999994,0.19286207404234282,3.8326014894004867,3418.703520850979
8.961099999999995,0.19343754589512147,3.879679319416057,3419.091488782921
9.011099999999995,0.19540001600047907,3.9983510602133476,3419.491323888942
9.061099999999996,0.1973057481242507,4.1821908338704805,3419.9095429723293
9.111099999999997,0.199624656274589,4.384933986137309,3420.348036370943
9.161099999999998,0.20043032048167791,4.555550549957488,3420.803591425939
9.211099999999998,0.2011136331560062,4.862637952740199,3421.289855221213
9.261099999999999,0.19467923441963478,4.364669180139892,3421.7263221392272
9.3111,0.19010770996927667,3.969538049708766,3422.123275944198
9.3611,0.1884501643461343,3.773067009450621,3422.5005826451434
9.411100000000001,0.18925970431164976,3.6506361335784936,3422.8656462585013
9.461100000000002,0.18871214656496685,3.65050912270295,3423.2306971707717
9.511100000000003,0.18854509093598903,3.7397457974102504,3423.604671750513
9.561100000000003,0.1886792071919742,3.6874732604882965,3423.9734190765616
9.611100000000004,0.18960501066768665,3.700673343471214,3424.3434864109086
9.661100000000005,0.1913457507535426,3.7975248303536238,3424.7232388939437
9.711100000000005,0.19387250343122275,3.9396431644353562,3425.1172032103873
9.761100000000006,0.19545496229650627,4.108127882056913,3425.5280159985928
9.811100000000007,0.19710509008745827,4.382360991359599,3425.9662520977286
9.861100000000008,0.1908329436091695,3.98219928607851,3426.3644720263364
9.911100000000008,0.18610042578998287,3.672340016711225,3426.7317060280075
9.961100000000009,0.18403478944133692,3.531282239840506,3427.0848342519917
10.01110000000001,0.18434856519014528,3.501139561498236,3427.4349482081416
10.06110000000001,0.18591653175480083,3.60807266276029,3427.7957554744175
10.111100000000011,0.18847432529330257,3.72301463541946,3428.1680569379596
10.161100000000012,0.18609771024050614,3.601798473355913,3428.528236785295
10.211100000000012,0.18394511991096543,3.5107303594441572,3428.8793098212395
10.261100000000013,0.18433586472768446,3.5867747054593715,3429.2379872917854
10.311100000000014,0.18510350806247075,3.7849138177948958,3429.616478673565
10.361100000000015,0.18265048753112,3.5751299018242104,3429.9739916637473
10.411100000000015,0.18152757115086376,3.445184285181912,3430.3185100922656
10.461100000000016,0.18206169824042917,3.4364561695363562,3430.6621557092194
10.511100000000017,0.1841016415664799,3.5028209850225434,3431.0124378077217
10.561100000000017,0.18609484595564427,3.6478911841477295,3431.3772269261362
10.611100000000018,0.18852636782621665,3.884825419251866,3431.7657094680612
10.661100000000019,0.1841038103715544,3.6125644430407653,3432.1269659123654
10.71110000000002,0.18086700524710989,3.413802322165019,3432.468346144582
10.76110000000002,0.17969563180182763,3.346412855042496,3432.8029874300864
10.811100000000021,0.18048906926050484,3.3709874523082233,3433.1400861753173
10.861100000000022,0.1799180904886012,3.3243789257916334,3433.4725240678963
10.911100000000022,0.1799139136546453,3.333786139658553,3433.8059026818623
10.961100000000023,0.18087223477683997,3.4146225966970505,3434.147364941532
11.011100000000024,0.18283130755227023,3.592972570437139,3434.5066621985757
11.061100000000025,0.18079897612587148,3.436985020421708,3434.850360700618
11.111100000000025,0.17968193297899027,3.3451663859659395,3435.1848773392144
11.161100000000026,0.17999958063567387,3.3544905161075693,3435.520326390825
11.211100000000027,0.18176064584547605,3.4505665167966133,3435.8653830425046
11.261100000000027,0.18035667696938418,3.3579818729937334,3436.201181229804
11.311100000000028,0.17966226225095552,3.3258247410349377,3436.533763703908
11.361100000000029,0.18016010328102686,3.376633482700703,3436.8714270521778
11.41110000000003,0.18191393059506294,3.524297708362069,3437.223856823014
11.46110000000003,0.18039578283504004,3.3997505005858164,3437.5638318730726
11.511100000000031,0.17968947143499034,3.3363505092405314,3437.8974669239965
11.561100000000032,0.18026304230531287,3.3654481922802297,3438.2340117432245
11.611100000000032,0.1821434974226936,3.4826223740068554,3438.5822739806254
11.661100000000033,0.18052654258430711,3.3744952075496424,3438.9197235013803
11.711100000000034,0.17967452927547714,3.3270301128329924,3439.2524265126635
11.761100000000035,0.1800816384306154,3.3678924395985965,3439.5892157566236
11.811100000000035,0.18179213169965056,3.50448049470465,3439.939663806094
11.861100000000036,0.18035310173184446,3.388661926725515,3440.2785299987663
11.911100000000037,0.17970166381207953,3.3334079835532022,3440.611870797122
11.961100000000037,0.18029624226708,3.368712066346463,3440.9487420037563
12.011100000000038,0.18216453510600797,3.46604719345812,3441.2953467231023
12.061100000000039,0.18395710315049815,3.623446327757997,3441.657691355878
12.11110000000004,0.18612513677525921,3.7968027223112766,3442.037371628109
12.16110000000004,0.18691264268961266,3.945780799512053,3442.4319497080605
12.211100000000041,0.18759191000789513,4.215212926802456,3442.8534710007407
12.261100000000042,0.18158305923836263,3.7841977547189005,3443.2318907762124
12.311100000000042,0.17728220034744488,3.44272125828988,3443.5761629020412
12.361100000000043,0.17567846338463214,3.2743144188339945,3443.903594343925
12.411100000000044,0.17637610826843692,3.213719883449083,3444.2249663322696
12.461100000000044,0.1781379844350635,3.2892006730925805,3444.553886399579
12.511100000000045,0.1808280501790001,3.4108092545245086,3444.8949673250313
12.561100000000046,0.1824963238663176,3.559389186252244,3445.2509062436566
12.611100000000047,0.1842401725763554,3.7974024991213704,3445.6306464935687
12.661100000000047,0.17859264393266489,3.464111564861473,3445.977057650055
12.711100000000048,0.1742990938409719,3.2072211399305566,3446.2977797640483
12.761100000000049,0.17239599395110639,3.0934701170143244,3446.6071267757497
12.81110000000005,0.17264879389515017,3.074923258207511,3446.9146191015707
12.86110000000005,0.1740669894040708,3.1738304226830105,3447.232002143839
12.91110000000005,0.1764012988772748,3.3632994561065486,3447.5683320894495
12.961100000000052,0.1738734825010127,3.1922693892768703,3447.8875590283774
13.011100000000052,0.17224057077603025,3.02679828760612,3448.190238857138
13.061100000000053,0.1724972586985389,3.0609174635456444,3448.4963306034924
13.111100000000054,0.1731073623543428,3.1823645014466755,3448.814567053637
