t [s],error [m],run_obj,accum_obj
0.0001,4.242640687119285,1923.7900822631532,192.37900822631534
0.0011,4.241224140676479,1922.4652916950604,384.6255373958214
0.006478962376426427,4.232775702926306,1914.5760905363816,576.0831464494596
0.05647896237642643,4.149175952386226,1837.5637125100102,759.8395177004606
0.10647896237642643,4.057264120624368,1754.950934074204,935.3346111078811
0.15647896237642644,3.958379324036833,1668.3210414205187,1102.166715249933
0.20647896237642643,3.8540551276971224,1579.357724541619,1260.102487704095
0.2564789623764264,3.746027348327903,1489.808428342934,1409.0833305383883
0.3064789623764264,3.636238994190829,1401.445974610024,1549.2279279993907
0.3564789623764264,3.5268393112396677,1316.0294838937996,1680.8308763887705
0.4064789623764264,3.4201725337694544,1235.2656556297143,1804.357441951742
0.4564789623764264,3.3184911200791767,1160.6990097568214,1920.4273429274242
0.5064789623764264,3.2227974694643917,1092.7869092822505,2029.7060338556494
0.5564789623764265,3.1327203955889584,1030.7169044014624,2132.7777242957955
0.6064789623764265,3.0475260563131865,973.5892745394854,2230.136651749744
0.6564789623764266,2.9665865932425546,920.7087977493356,2322.2075315246775
0.7064789623764266,2.8894507320542187,871.5721752041339,2409.364749045091
0.7564789623764266,2.8158343024241375,825.825442858266,2491.9472933309175
0.8064789623764267,2.745590722803287,783.2235514292215,2570.26964847384
0.8564789623764267,2.678680371286553,743.5983758011419,2644.629486053954
0.9064789623764268,2.615144575351775,706.8351756447412,2715.3130036184284
0.9564789623764268,2.555085051296197,672.8558895067173,2782.5985925691
1.0064789623764268,2.49864798255731,641.607509052011,2846.759343474301
1.0564789623764268,2.4460115538175438,613.0540786086553,2908.064751335167
1.1064789623764268,2.397375843177773,587.1712254484179,2966.781873880009
1.1564789623764269,2.3529541971428936,563.9424347654899,3023.176117356558
1.206478962376427,2.3129654549720042,543.3565187048553,3077.5117692270433
1.256478962376427,2.2776266131482297,525.4058990550386,3130.0523591325473
1.306478962376427,2.2471457193494544,510.085442971742,3181.0609034297213
1.356478962376427,2.221714957663668,497.3916740104568,3230.800070830767
1.406478962376427,2.2015040309725378,487.3222376294604,3279.532294593713
1.4564789623764272,2.1866540569922366,479.87553914096634,3327.5198485078095
1.5064789623764272,2.177272263525778,475.050498491423,3375.024898356952
1.5564789623764272,2.1734277886515194,472.8463841776843,3422.30953677472
1.6064789623764273,2.175079396230889,473.2361276091115,3469.633149535631
1.6564789623764273,2.1785496423133117,474.64426875965626,3517.097576411597
1.7064789623764274,2.1810653509060947,475.713954436581,3564.668971855255
1.7564789623764274,2.182529566192678,476.34592289265976,3612.3035641445213
1.8064789623764275,2.183318467708344,476.68856499292923,3659.972420643814
1.8564789623764275,2.1837297354583196,476.8677122340238,3707.6591918672166
1.9064789623764276,2.183940860682225,476.9598083156964,3755.355172698786
1.9564789623764276,2.1840484327754996,477.00676590596333,3803.0558492893824
2.0064789623764274,2.1841030389975526,477.0306111134437,3850.7589104007266
2.0564789623764272,2.184130706755278,477.0426950885873,3898.4631799095855
2.106478962376427,2.1841447122174666,477.04881256196813,3946.168061165782
2.156478962376427,2.184151798439072,477.0519079062536,3993.8732519564073
2.2064789623764267,2.1841553829321994,477.0534736903706,4041.5785993254444
2.2564789623764265,2.1841571958913026,477.0542656392408,4089.2840258893684
2.3064789623764264,2.1841581127903846,477.0546661675385,4136.989492506123
2.356478962376426,2.1841585764951117,477.0548687279029,4184.694979378913
2.406478962376426,2.1841588110014776,477.05497116758687,4232.400476495672
2.456478962376426,2.1841589295958994,477.0550229733629,4280.105978793008
2.5064789623764256,2.184158989571155,477.055049172452,4327.811483710253
2.5564789623764255,2.184159019901619,477.0550624217611,4375.516989952429
2.6064789623764253,2.1841590352402127,477.055069122146,4423.222496864643
2.656478962376425,2.1841590429971767,477.05507251063443,4470.928004115707
2.706478962376425,2.1841590469199925,477.05507422424506,4518.633511538132
2.7564789623764248,2.1841590489038203,477.05507509084407,4566.339019047216
2.8064789623764246,2.184159049907072,477.05507552909637,4614.044526600126
2.8564789623764244,2.184159050414432,477.0550757507273,4661.750034175199
2.9064789623764242,2.1841590506710116,477.05507586280953,4709.45554176148
2.956478962376424,2.1841590508007678,477.0550759194911,4757.161049353429
3.006478962376424,2.1841590508663873,477.05507594815583,4804.866556948245
3.0564789623764237,2.1841590508995723,477.05507596265215,4852.57206454451
3.1064789623764235,2.1841590509163544,477.0550759699831,4900.277572141508
3.1564789623764233,2.1841590509248414,477.0550759736904,4947.983079738878
3.206478962376423,2.184159050929133,477.0550759755652,4995.6885873364345
3.256478962376423,2.184159050931304,477.0550759765134,5043.394094934086
3.306478962376423,2.1841590509324016,477.05507597699295,5091.099602531785
3.3564789623764226,2.1841590509329567,477.0550759772355,5138.805110129509
3.4064789623764224,2.1841590509332374,477.05507597735806,5186.510617727245
3.4564789623764223,2.1841590509333795,477.05507597742013,5234.216125324987
3.506478962376422,2.184159050933451,477.0550759774514,5281.921632922732
3.556478962376422,2.1841590509334874,477.0550759774673,5329.627140520479
3.6064789623764217,2.1841590509335056,477.0550759774752,5377.332648118227
3.6564789623764216,2.184159050933515,477.0550759774793,5425.038155715974
3.7064789623764214,2.18415905093352,477.0550759774814,5472.743663313722
3.756478962376421,2.184159050933522,477.05507597748243,5520.449170911471
3.806478962376421,2.1841590509335234,477.05507597748306,5568.15467850922
3.856478962376421,2.1841590509335242,477.0550759774834,5615.860186106968
3.9064789623764207,2.1841590509335242,477.0550759774834,5663.565693704717
3.9564789623764205,2.1841590509335242,477.0550759774834,5711.271201302466
4.006478962376421,2.1841590509335242,477.0550759774834,5758.976708900214
4.056478962376421,2.1841590509335242,477.0550759774834,5806.682216497963
4.10647896237642,2.1841590509335242,477.0550759774834,5854.387724095712
4.15647896237642,2.1841590509335242,477.0550759774834,5902.09323169346
4.20647896237642,2.1841590509335247,477.05507597748357,5949.798739291209
4.25647896237642,2.1841590509335247,477.05507597748357,5997.504246888958
4.30647896237642,2.1841590509335247,477.05507597748357,6045.2097544867065
4.3564789623764195,2.1841590509335247,477.05507597748357,6092.915262084455
4.406478962376419,2.1841590509335247,477.05507597748357,6140.620769682204
4.456478962376419,2.1841590509335247,477.05507597748357,6188.326277279953
4.506478962376419,2.1841590509335247,477.05507597748357,6236.031784877701
4.556478962376419,2.1841590509335247,477.05507597748357,6283.73729247545
4.606478962376419,2.1841590509335247,477.05507597748357,6331.442800073199
4.6564789623764185,2.1841590509335247,477.05507597748357,6379.148307670947
4.706478962376418,2.1841590509335247,477.05507597748357,6426.853815268696
4.756478962376418,2.1841590509335247,477.05507597748357,6474.559322866445
4.806478962376418,2.1841590509335247,477.05507597748357,6522.264830464193
4.856478962376418,2.1841590509335247,477.05507597748357,6569.970338061942
4.906478962376418,2.1841590509335247,477.05507597748357,6617.675845659691
4.956478962376417,2.1841590509335247,477.05507597748357,6665.3813532574395
5.006478962376417,2.1841590509335247,477.05507597748357,6713.086860855188
5.056478962376417,2.1841590509335247,477.05507597748357,6760.792368452937
5.106478962376417,2.1841590509335247,477.05507597748357,6808.497876050686
5.156478962376417,2.1841590509335247,477.05507597748357,6856.203383648434
5.2064789623764165,2.1841590509335247,477.05507597748357,6903.908891246183
5.256478962376416,2.1841590509335247,477.05507597748357,6951.614398843932
5.306478962376416,2.1841590509335247,477.05507597748357,6999.31990644168
5.356478962376416,2.1841590509335247,477.05507597748357,7047.025414039429
5.406478962376416,2.1841590509335247,477.05507597748357,7094.730921637178
5.456478962376416,2.1841590509335247,477.05507597748357,7142.436429234926
5.506478962376415,2.1841590509335247,477.05507597748357,7190.141936832675
5.556478962376415,2.1841590509335247,477.05507597748357,7237.847444430424
5.606478962376415,2.1841590509335247,477.05507597748357,7285.5529520281725
5.656478962376415,2.1841590509335247,477.05507597748357,7333.258459625921
5.706478962376415,2.1841590509335247,477.05507597748357,7380.96396722367
5.7564789623764145,2.1841590509335247,477.05507597748357,7428.669474821419
5.806478962376414,2.1841590509335247,477.05507597748357,7476.374982419167
5.856478962376414,2.1841590509335247,477.05507597748357,7524.080490016916
5.906478962376414,2.1841590509335247,477.05507597748357,7571.785997614665
5.956478962376414,2.1841590509335247,477.05507597748357,7619.491505212413
6.006478962376414,2.1841590509335247,477.05507597748357,7667.197012810162
6.0564789623764135,2.1841590509335247,477.05507597748357,7714.902520407911
6.106478962376413,2.1841590509335247,477.05507597748357,7762.608028005659
6.156478962376413,2.1841590509335247,477.05507597748357,7810.313535603408
6.206478962376413,2.1841590509335247,477.05507597748357,7858.019043201157
6.256478962376413,2.1841590509335247,477.05507597748357,7905.7245507989055
6.306478962376413,2.1841590509335247,477.05507597748357,7953.430058396654
6.356478962376412,2.1841590509335247,477.05507597748357,8001.135565994403
6.406478962376412,2.1841590509335247,477.05507597748357,8048.841073592152
6.456478962376412,2.1841590509335247,477.05507597748357,8096.5465811899
6.506478962376412,2.1841590509335247,477.05507597748357,8144.252088787649
6.556478962376412,2.1841590509335247,477.05507597748357,8191.957596385398
6.6064789623764115,2.1841590509335247,477.05507597748357,8239.663103983146
6.656478962376411,2.1841590509335247,477.05507597748357,8287.368611580894
6.706478962376411,2.1841590509335247,477.05507597748357,8335.074119178642
6.756478962376411,2.1841590509335247,477.05507597748357,8382.77962677639
6.806478962376411,2.1841590509335247,477.05507597748357,8430.485134374137
6.856478962376411,2.1841590509335247,477.05507597748357,8478.190641971885
6.9064789623764105,2.1841590509335247,477.05507597748357,8525.896149569633
6.95647896237641,2.1841590509335247,477.05507597748357,8573.60165716738
7.00647896237641,2.1841590509335247,477.05507597748357,8621.307164765129
7.05647896237641,2.1841590509335247,477.05507597748357,8669.012672362876
7.10647896237641,2.1841590509335247,477.05507597748357,8716.718179960624
7.15647896237641,2.1841590509335247,477.05507597748357,8764.423687558372
7.206478962376409,2.1841590509335247,477.05507597748357,8812.12919515612
7.256478962376409,2.1841590509335247,477.05507597748357,8859.834702753868
7.306478962376409,2.1841590509335247,477.05507597748357,8907.540210351615
7.356478962376409,2.1841590509335247,477.05507597748357,8955.245717949363
7.406478962376409,2.1841590509335247,477.05507597748357,9002.95122554711
7.4564789623764085,2.1841590509335247,477.05507597748357,9050.656733144859
7.506478962376408,2.1841590509335247,477.05507597748357,9098.362240742606
7.556478962376408,2.1841590509335247,477.05507597748357,9146.067748340354
7.606478962376408,2.1841590509335247,477.05507597748357,9193.773255938102
7.656478962376408,2.1841590509335247,477.05507597748357,9241.47876353585
7.706478962376408,2.1841590509335247,477.05507597748357,9289.184271133598
7.756478962376407,2.1841590509335247,477.05507597748357,9336.889778731345
7.806478962376407,2.1841590509335247,477.05507597748357,9384.595286329093
7.856478962376407,2.1841590509335247,477.05507597748357,9432.300793926841
7.906478962376407,2.1841590509335247,477.05507597748357,9480.006301524589
7.956478962376407,2.1841590509335247,477.05507597748357,9527.711809122336
8.006478962376407,2.1841590509335247,477.05507597748357,9575.417316720084
8.056478962376408,2.1841590509335247,477.05507597748357,9623.122824317832
8.106478962376409,2.1841590509335247,477.05507597748357,9670.82833191558
8.15647896237641,2.1841590509335247,477.05507597748357,9718.533839513328
8.20647896237641,2.1841590509335247,477.05507597748357,9766.239347111075
8.256478962376411,2.1841590509335247,477.05507597748357,9813.944854708823
8.306478962376412,2.1841590509335247,477.05507597748357,9861.650362306571
8.356478962376412,2.1841590509335247,477.05507597748357,9909.355869904319
8.406478962376413,2.1841590509335247,477.05507597748357,9957.061377502067
8.456478962376414,2.1841590509335247,477.05507597748357,10004.766885099814
8.506478962376415,2.1841590509335247,477.05507597748357,10052.472392697562
8.556478962376415,2.1841590509335247,477.05507597748357,10100.17790029531
8.606478962376416,2.1841590509335247,477.05507597748357,10147.883407893058
8.656478962376417,2.1841590509335247,477.05507597748357,10195.588915490805
8.706478962376417,2.1841590509335247,477.05507597748357,10243.294423088553
8.756478962376418,2.1841590509335247,477.05507597748357,10290.999930686301
8.806478962376419,2.1841590509335247,477.05507597748357,10338.705438284049
8.85647896237642,2.1841590509335247,477.05507597748357,10386.410945881797
8.90647896237642,2.1841590509335247,477.05507597748357,10434.116453479544
8.956478962376421,2.1841590509335247,477.05507597748357,10481.821961077292
9.006478962376422,2.1841590509335247,477.05507597748357,10529.52746867504
9.056478962376422,2.1841590509335247,477.05507597748357,10577.232976272788
9.106478962376423,2.1841590509335247,477.05507597748357,10624.938483870535
9.156478962376424,2.1841590509335247,477.05507597748357,10672.643991468283
9.206478962376424,2.1841590509335247,477.05507597748357,10720.349499066031
9.256478962376425,2.1841590509335247,477.05507597748357,10768.055006663779
9.306478962376426,2.1841590509335247,477.05507597748357,10815.760514261527
9.356478962376427,2.1841590509335247,477.05507597748357,10863.466021859274
9.406478962376427,2.1841590509335247,477.05507597748357,10911.171529457022
9.456478962376428,2.1841590509335247,477.05507597748357,10958.87703705477
9.506478962376429,2.1841590509335247,477.05507597748357,11006.582544652518
9.55647896237643,2.1841590509335247,477.05507597748357,11054.288052250266
9.60647896237643,2.1841590509335247,477.05507597748357,11101.993559848013
9.65647896237643,2.1841590509335247,477.05507597748357,11149.699067445761
9.706478962376432,2.1841590509335247,477.05507597748357,11197.404575043509
9.756478962376432,2.1841590509335247,477.05507597748357,11245.110082641257
9.806478962376433,2.1841590509335247,477.05507597748357,11292.815590239004
9.856478962376434,2.1841590509335247,477.05507597748357,11340.521097836752
9.906478962376434,2.1841590509335247,477.05507597748357,11388.2266054345
9.956478962376435,2.1841590509335247,477.05507597748357,11435.932113032248
10.006478962376436,2.1841590509335247,477.05507597748357,11483.637620629996
10.056478962376437,2.1841590509335247,477.05507597748357,11531.343128227743
10.106478962376437,2.1841590509335247,477.05507597748357,11579.048635825491
10.156478962376438,2.1841590509335247,477.05507597748357,11626.754143423239
10.206478962376439,2.1841590509335247,477.05507597748357,11674.459651020987
10.25647896237644,2.1841590509335247,477.05507597748357,11722.165158618734
10.30647896237644,2.1841590509335247,477.05507597748357,11769.870666216482
10.35647896237644,2.1841590509335247,477.05507597748357,11817.57617381423
10.406478962376442,2.1841590509335247,477.05507597748357,11865.281681411978
10.456478962376442,2.1841590509335247,477.05507597748357,11912.987189009726
10.506478962376443,2.1841590509335247,477.05507597748357,11960.692696607473
10.556478962376444,2.1841590509335247,477.05507597748357,12008.398204205221
10.606478962376444,2.1841590509335247,477.05507597748357,12056.103711802969
10.656478962376445,2.1841590509335247,477.05507597748357,12103.809219400717
10.706478962376446,2.1841590509335247,477.05507597748357,12151.514726998465
10.756478962376447,2.1841590509335247,477.05507597748357,12199.220234596212
10.806478962376447,2.1841590509335247,477.05507597748357,12246.92574219396
10.856478962376448,2.1841590509335247,477.05507597748357,12294.631249791708
10.906478962376449,2.1841590509335247,477.05507597748357,12342.336757389456
10.95647896237645,2.1841590509335247,477.05507597748357,12390.042264987203
11.00647896237645,2.1841590509335247,477.05507597748357,12437.747772584951
11.05647896237645,2.1841590509335247,477.05507597748357,12485.453280182699
11.106478962376451,2.1841590509335247,477.05507597748357,12533.158787780447
11.156478962376452,2.1841590509335247,477.05507597748357,12580.864295378195
11.206478962376453,2.1841590509335247,477.05507597748357,12628.569802975942
11.256478962376454,2.1841590509335247,477.05507597748357,12676.27531057369
11.306478962376454,2.1841590509335247,477.05507597748357,12723.980818171438
11.356478962376455,2.1841590509335247,477.05507597748357,12771.686325769186
11.406478962376456,2.1841590509335247,477.05507597748357,12819.391833366933
11.456478962376456,2.1841590509335247,477.05507597748357,12867.097340964681
11.506478962376457,2.1841590509335247,477.05507597748357,12914.802848562429
11.556478962376458,2.1841590509335247,477.05507597748357,12962.508356160177
11.606478962376459,2.1841590509335247,477.05507597748357,13010.213863757925
11.65647896237646,2.1841590509335247,477.05507597748357,13057.919371355672
11.70647896237646,2.1841590509335247,477.05507597748357,13105.62487895342
11.75647896237646,2.1841590509335247,477.05507597748357,13153.330386551168
11.806478962376461,2.1841590509335247,477.05507597748357,13201.035894148916
11.856478962376462,2.1841590509335247,477.05507597748357,13248.741401746664
11.906478962376463,2.1841590509335247,477.05507597748357,13296.446909344411
11.956478962376464,2.1841590509335247,477.05507597748357,13344.15241694216
12.006478962376464,2.1841590509335247,477.05507597748357,13391.857924539907
12.056478962376465,2.1841590509335247,477.05507597748357,13439.563432137655
12.106478962376466,2.1841590509335247,477.05507597748357,13487.268939735402
12.156478962376466,2.1841590509335247,477.05507597748357,13534.97444733315
12.206478962376467,2.1841590509335247,477.05507597748357,13582.679954930898
12.256478962376468,2.1841590509335247,477.05507597748357,13630.385462528646
12.306478962376469,2.1841590509335247,477.05507597748357,13678.090970126394
12.35647896237647,2.1841590509335247,477.05507597748357,13725.796477724141
12.40647896237647,2.1841590509335247,477.05507597748357,13773.50198532189
12.45647896237647,2.1841590509335247,477.05507597748357,13821.207492919637
12.506478962376471,2.1841590509335247,477.05507597748357,13868.913000517385
12.556478962376472,2.1841590509335247,477.05507597748357,13916.618508115132
12.606478962376473,2.1841590509335247,477.05507597748357,13964.32401571288
12.656478962376474,2.1841590509335247,477.05507597748357,14012.029523310628
12.706478962376474,2.1841590509335247,477.05507597748357,14059.735030908376
12.756478962376475,2.1841590509335247,477.05507597748357,14107.440538506124
12.806478962376476,2.1841590509335247,477.05507597748357,14155.146046103871
12.856478962376476,2.1841590509335247,477.05507597748357,14202.85155370162
12.906478962376477,2.1841590509335247,477.05507597748357,14250.557061299367
12.956478962376478,2.1841590509335247,477.05507597748357,14298.262568897115
13.006478962376478,2.1841590509335247,477.05507597748357,14345.968076494863
13.05647896237648,2.1841590509335247,477.05507597748357,14393.67358409261
13.10647896237648,2.1841590509335247,477.05507597748357,14441.379091690358
