t [s],error [m],run_obj,accum_obj
0.0001,4.242640687119285,924.6499999999997,92.46499999999997
0.0011,4.242576370754703,924.6227130843073,184.9272713084307
0.0111,4.241868770648042,924.3225333699563,277.35952464542635
0.0611,4.2383325372089455,922.823134798201,369.64183812524647
0.1111,4.234799254336492,922.2149683274081,461.86333495798726
0.16110000000000002,4.160893392468712,888.4000313657265,550.70333809456
0.2111,4.074655357997049,849.9494129893835,635.6982793934983
0.2611,3.9831394668002518,810.5949769508977,716.7577770885881
0.3111,3.887146028794104,770.5283718439897,793.8106142729871
0.3611,3.787184493265681,729.8722911963213,866.7978433926193
0.41109999999999997,3.6842066334020824,689.9825293119571,935.7960963238149
0.46109999999999995,3.5793269263466767,650.6113696999354,1000.8572332938085
0.5111,3.472769624330869,611.738037819916,1062.0310370758
0.5611,3.365004807148431,574.1560375998683,1119.4466408357869
0.6111000000000001,3.2565937618793948,537.5648982782997,1173.2031306636168
0.6611000000000001,3.1476689623357625,502.2182968655466,1223.4249603501714
0.7111000000000002,3.038423363923629,467.97884013785807,1270.2228443639572
0.7611000000000002,2.9289291289615536,434.99543469430824,1313.722387833388
0.8111000000000003,2.8192771813332,403.17655625454336,1354.0400434588423
0.8611000000000003,2.7095063075444252,372.629373569623,1391.3029808158046
0.9111000000000004,2.599666023350301,343.2768799055893,1425.6306688063635
0.9611000000000004,2.489773573723937,315.1916777457139,1457.1498365809348
1.0111000000000003,2.379853806091653,288.31564221333855,1485.9814008022686
1.0611000000000004,2.269908741610804,262.6414827471639,1512.245549076985
1.1111000000000004,2.1599459361030178,238.2233034964786,1536.067879426633
1.1611000000000005,2.0499758681365168,215.02103174156576,1557.5699826007897
1.2111000000000005,1.9399921201024903,192.95817098977315,1576.865799699767
1.2611000000000006,1.8299969918368146,172.09866749625544,1594.0756664493924
1.3111000000000006,1.7199974801838975,152.44288900086332,1609.3199553494787
1.3611000000000006,1.6100050613463506,134.0000140755119,1622.7199567570299
1.4111000000000007,1.5000346389330832,116.76729428696291,1634.3966861857261
1.4611000000000007,1.3901058592716984,100.75454752972871,1644.472140938699
1.5111000000000008,1.2802507182035021,85.92568021178654,1653.0647089598779
1.5611000000000008,1.1705233698666673,72.33752148380869,1660.2984611082588
1.6111000000000009,1.0610326341207275,59.84449981741081,1666.28291109
1.661100000000001,0.9520272765834535,48.76302210197257,1671.1592133001973
1.711100000000001,0.8440589173918127,38.42243448684705,1675.001456748882
1.761100000000001,0.7389427717562486,29.404339838432502,1677.9418907327251
1.811100000000001,0.6508423723208318,22.771593089355967,1680.2190500416607
1.861100000000001,0.570280662992181,16.990118832820812,1681.9180619249428
1.9111000000000011,0.5267459912066231,14.640183943474954,1683.3820803192903
1.9611000000000012,0.4881051710694346,12.729249856108002,1684.6550053049011
2.011100000000001,0.46589466046755157,11.864611101463652,1685.8414664150475
2.061100000000001,0.445343583314522,11.158430278452908,1686.957309442893
2.111100000000001,0.42494819807968875,10.775654436823631,1688.0348748865752
2.1611000000000007,0.39377756473290965,9.040232583516659,1688.9388981449267
2.2111000000000005,0.36826607712839693,7.6498809033930195,1689.703886235266
2.2611000000000003,0.3510747630046921,6.457083793997257,1690.3495946146659
2.3111,0.3490292522541228,6.475342232707246,1690.9971288379365
2.3611,0.3479113805421577,6.585114912804243,1691.655640329217
2.4111,0.3466927019052133,6.724096534479365,1692.3280499826649
2.4610999999999996,0.3474380002048902,6.963227674894244,1693.0243727501543
2.5110999999999994,0.3485009478146033,7.244587714021661,1693.7488315215564
2.5610999999999993,0.3496830913592044,7.781526909406645,1694.5269842124972
2.611099999999999,0.3392774763443468,6.965000913652471,1695.2234843038625
2.661099999999999,0.3322997073073983,6.3147241571476185,1695.8549567195773
2.7110999999999987,0.3302984556818544,5.903668802755679,1696.4453235998528
2.7610999999999986,0.332226735693516,5.804555809160301,1697.025779180769
2.8110999999999984,0.33701457726474066,5.909270496923375,1697.6167062304612
2.861099999999998,0.344532811064236,6.11570893781073,1698.2282771242424
2.911099999999998,0.34768370852969305,6.341367033271983,1698.8624138275695
2.961099999999998,0.35059720469426003,6.621958667753529,1699.524609694345
3.0110999999999977,0.3538477859623743,6.902815682084024,1700.2148912625532
3.0610999999999975,0.35010061631411266,6.967789757161592,1700.9116702382694
3.1110999999999973,0.34553268976813334,7.021953851186384,1701.613865623388
3.161099999999997,0.34085533703618953,7.303809504965816,1702.3442465738844
3.211099999999997,0.320356192075066,6.2318740157317,1702.9674339754577
3.261099999999997,0.30355950027316486,5.3453622639203235,1703.5019702018496
3.3110999999999966,0.29305384776117976,4.720182957945902,1703.9739884976443
3.3610999999999964,0.2899373172013187,4.475444100152643,1704.4215329076596
3.4110999999999962,0.29121077118154026,4.448797248586224,1704.8664126325182
3.461099999999996,0.2966360154146395,4.544006657547916,1705.320813298273
3.511099999999996,0.30053007764680395,4.746552095877589,1705.7954685078607
3.5610999999999957,0.30487074150805005,5.019053446004439,1706.297373852461
3.6110999999999955,0.3100196215805393,5.305315638451299,1706.8279054163063
3.6610999999999954,0.309256968529762,5.448197747606254,1707.3727251910668
3.711099999999995,0.3078054986540762,5.586333686086119,1707.9313585596753
3.761099999999995,0.30629515178588207,5.920857460671818,1708.5234443057425
3.811099999999995,0.29042982955120783,5.1133149974273095,1709.0347758054852
3.8610999999999946,0.27777342264363053,4.45014298658827,1709.479790104144
3.9110999999999945,0.27051960555957355,3.9948612269944133,1709.8792762268436
3.9610999999999943,0.26905160101545733,3.837073568205006,1710.262983583664
4.011099999999995,0.2712021441118405,3.801112809095792,1710.6430948645736
4.061099999999994,0.27436199133028,3.917572666513318,1711.034852131225
4.111099999999994,0.278714373920033,4.126227351754075,1711.4474748664004
4.161099999999994,0.28433495336260517,4.363032825871521,1711.8837781489876
4.211099999999994,0.2854483629969246,4.5362753313403426,1712.3374056821217
4.261099999999994,0.28608872229484644,4.71904582331066,1712.8093102644527
4.3110999999999935,0.2867724771246745,5.067255051870444,1713.3160357696397
4.361099999999993,0.2730409295811424,4.41561580791098,1713.7575973504308
4.411099999999993,0.2620272186307439,3.8810605344694773,1714.1457034038779
4.461099999999993,0.25580874811241205,3.523286872539882,1714.4980320911318
4.511099999999993,0.25464184735666257,3.413480815189614,1714.8393801726509
4.561099999999993,0.25672653336405843,3.456167007816162,1715.1849968734325
4.611099999999992,0.2618950715246296,3.5730000344495148,1715.5422968768776
4.661099999999992,0.2651203343069507,3.7507878539057935,1715.9173756622681
4.711099999999992,0.26852601795961367,3.97171188110569,1716.3145468503787
4.761099999999992,0.2724652736351913,4.194841156196249,1716.7340309659983
4.811099999999992,0.2712898243182596,4.2908200172938225,1717.1631129677276
4.8610999999999915,0.26953262368793,4.378365113677528,1717.6009494790953
4.911099999999991,0.26773032835712257,4.640801423478883,1718.0650296214433
4.961099999999991,0.25470488100944993,4.008660256195884,1718.4658956470628
5.011099999999991,0.2447033818502713,3.497294866523194,1718.815625133715
5.061099999999991,0.23949403388885138,3.1480305750652717,1719.1304281912214
5.111099999999991,0.2390419671500949,3.0382941103929415,1719.4342576022607
5.1610999999999905,0.2415790644185149,3.0679658492158985,1719.7410541871823
5.21109999999999,0.2469393726803546,3.1632014807352107,1720.0573743352559
5.26109999999999,0.2501131513547931,3.3158863649980233,1720.3889629717557
5.31109999999999,0.2533967961590039,3.5091629547843444,1720.739879267234
5.36109999999999,0.2571530472278008,3.700889627755809,1721.1099682300096
5.41109999999999,0.2557395497576879,3.7749938297117356,1721.4874676129807
5.461099999999989,0.2537468394427241,3.8407036391543525,1721.8715379768962
5.511099999999989,0.2517140479096972,4.0612356518447585,1722.2776615420808
5.561099999999989,0.23890052518721117,3.497501207799083,1722.6274116628606
5.611099999999989,0.22890921439272852,3.0418499838425754,1722.9315966612448
5.661099999999989,0.22346692012089495,2.729966692168212,1723.2045933304616
5.7110999999999885,0.2226849231277657,2.6329198785922396,1723.467885318321
5.761099999999988,0.22479092572982548,2.6597535910068553,1723.7338606774215
5.811099999999988,0.2296256786381603,2.7417592455450412,1724.008036601976
5.861099999999988,0.23256662795971886,2.878412524495331,1724.2958778544255
5.911099999999988,0.23562981393896984,3.0493736197830574,1724.6008152164038
5.961099999999988,0.23914535421676414,3.219814056886398,1724.9227966220924
6.0110999999999875,0.2380846625013729,3.292034355107329,1725.252000057603
6.061099999999987,0.23651268357142055,3.3574738922005474,1725.5877474468232
6.111099999999987,0.2349087775016136,3.5640963995895967,1725.944157086782
6.161099999999987,0.22351275661443915,3.076463224114397,1726.2518034091936
6.211099999999987,0.2147623251278253,2.684094665398002,1726.5202128757335
6.261099999999987,0.21021316696985698,2.4171426661409376,1726.7619271423475
6.311099999999986,0.20981990812743273,2.33848220988053,1726.9957753633355
6.361099999999986,0.21203882844199856,2.3688264752500685,1727.2326580108604
6.411099999999986,0.21672749221388324,2.4457110050369844,1727.477229111364
6.461099999999986,0.21947428063194885,2.569119041747729,1727.7341410155389
6.511099999999986,0.22229313005945475,2.722206757033886,1728.0063616912423
6.5610999999999855,0.22550610021854156,2.971168563516288,1728.3034785475938
6.611099999999985,0.21657506599756945,2.6450030405835507,1728.5679788516522
6.661099999999985,0.2092919219091831,2.380972337948096,1728.806076085447
6.711099999999985,0.20527665093583486,2.2157368689408514,1729.0276497723412
6.761099999999985,0.2046089354120428,2.1894162669929833,1729.2465913990404
6.811099999999985,0.20621408325260243,2.251724389216324,1729.471763837962
6.861099999999984,0.209990543757838,2.3899655320071753,1729.7107603911627
6.911099999999984,0.20714866401062343,2.272202187771448,1729.9379806099398
6.961099999999984,0.205138826807555,2.192861253103721,1730.1572667352502
7.011099999999984,0.2048251298039738,2.174356701322313,1730.3747024053825
7.061099999999984,0.2059590937230696,2.2316419736487623,1730.5978666027474
7.1110999999999835,0.20836140564031394,2.3481488180025507,1730.8326814845477
7.161099999999983,0.21199193589501542,2.5526076886728464,1731.087942253415
7.211099999999983,0.20787907258906752,2.3694678240419393,1731.324889035819
7.261099999999983,0.20499271374386607,2.2340644092879427,1731.5482954767479
7.311099999999983,0.20431710880603948,2.1709592498625967,1731.7653914017342
7.361099999999983,0.20546590386604338,2.205192084348284,1731.985910610169
7.4110999999999825,0.20809911159070785,2.3079950095277275,1732.2167101111218
7.461099999999982,0.21216451321719929,2.4325246296006426,1732.4599625740818
7.511099999999982,0.21390904618684614,2.5540752911192794,1732.7153701031937
7.561099999999982,0.21550290768306468,2.687327499106167,1732.9841028531043
7.611099999999982,0.21725521881372903,2.932637051754413,1733.2773665582797
7.661099999999982,0.2089995175740743,2.588867838774077,1733.5362533421571
7.711099999999981,0.20270940507685145,2.313344987310736,1733.7675878408882
7.761099999999981,0.19977143362328711,2.1353452029271645,1733.981122361181
7.811099999999981,0.19995287677775772,2.1014944169385905,1734.1912718028748
7.861099999999981,0.20224701186562286,2.155380012019138,1734.4068098040766
7.911099999999981,0.20655225463669336,2.2433104139955105,1734.6311408454762
7.9610999999999805,0.20891408690933358,2.3604592875805346,1734.8671867742344
8.011099999999981,0.21127723244101318,2.554503662205297,1735.1226371404548
8.061099999999982,0.20446755094422844,2.3119293574304396,1735.353830076198
8.111099999999983,0.19925291564703593,2.1223785520762197,1735.5660679314055
8.161099999999983,0.19693244748052954,2.0401041184193516,1735.7700783432474
8.211099999999984,0.19721084331272126,2.007389051738492,1735.9708172484213
8.261099999999985,0.19685083231115444,1.9915649904967956,1736.169973747471
8.311099999999985,0.19701183281812334,2.01225598872316,1736.3711993463432
8.361099999999986,0.19812685676705602,2.0732708770561175,1736.5785264340489
8.411099999999987,0.20023242950318568,2.205367086904015,1736.7990631427392
8.461099999999988,0.19789864349512756,2.0938761107861237,1737.008450753818
8.511099999999988,0.19665682909011484,2.0258626524878456,1737.2110370190667
8.561099999999989,0.19708359298061745,2.0279522348410093,1737.4138322425508
8.61109999999999,0.19916793386368983,2.0833167694418933,1737.622163919495
8.66109999999999,0.19751867268175446,2.024169012428939,1737.824580820738
8.711099999999991,0.19663739700718771,2.005253426639993,1738.025106163402
8.761099999999992,0.19709803018276287,2.039698863350495,1738.229076049737
8.811099999999993,0.1989935880814197,2.139924308707986,1738.4430684806077
8.861099999999993,0.19738685774014217,2.0570800010650276,1738.6487764807143
8.911099999999994,0.196682444831321,2.015113088873987,1738.8502877896017
8.961099999999995,0.19740793496894293,2.0339628633337647,1739.053684075935
9.011099999999995,0.19960076503450525,2.088220523475588,1739.2625061282827
9.061099999999996,0.2016439856926668,2.189352962218239,1739.4814414245045
9.111099999999997,0.20407992596314067,2.3675119930368793,1739.7181926238081
9.161099999999998,0.19943449451713832,2.182962330034614,1739.9364888568116
9.211099999999998,0.19620839371120374,2.046669751599251,1740.1411558319714
9.261099999999999,0.19531505604881125,2.000849714470466,1740.3412408034185
9.3111,0.19659032316455405,2.0068680654740683,1740.5419276099658
9.3611,0.19861714522821594,2.0896704047308283,1740.7508946504388
9.411100000000001,0.20144593348993747,2.2406275363623473,1740.974957404075
9.461100000000002,0.19775797790804472,2.0992332790315307,1741.1848807319782
9.511100000000003,0.19523639254900998,2.003056037910284,1741.3851863357693
9.561100000000003,0.1947092566553688,1.9824450915247351,1741.5834308449218
9.611100000000004,0.19614551057259874,2.01447463965905,1741.7848783088878
9.661100000000005,0.19513732048702886,1.9714691280153567,1741.9820252216894
9.711100000000005,0.19479001832665874,1.9643919253980826,1742.1784644142292
9.761100000000006,0.19558157977258922,2.005998946829046,1742.3790643089121
9.811100000000007,0.19757490790423388,2.1127109255112053,1742.5903354014633
9.861100000000008,0.19566511517873647,2.0239210250920827,1742.7927275039726
9.911100000000008,0.19473450293163166,1.9758536254799872,1742.9903128665205
9.961100000000009,0.19530922135954865,1.991442926702419,1743.1894571591909
10.01110000000001,0.1973851003011777,2.061573778023954,1743.3956145369932
10.06110000000001,0.19567001066164122,1.994847724021667,1743.5950993093954
10.111100000000011,0.19474546616760155,1.9672549490143916,1743.7918248042968
10.161100000000012,0.19517199780498645,1.9936809992361053,1743.9911929042203
10.211100000000012,0.19702355190252924,2.0529306054176666,1744.1964859647621
10.261100000000013,0.19887779933778052,2.154809240362135,1744.4119668887984
10.311100000000014,0.2011439957953717,2.3384008705572517,1744.6458069758542
10.361100000000015,0.19701847163398714,2.1559946875860065,1744.8614064446128
10.411100000000015,0.19433394870877393,2.0213728398343465,1745.0635437285962
10.461100000000016,0.19389482605971256,1.9767752657426092,1745.2612212551705
10.511100000000017,0.1955423338593624,1.9828677705403006,1745.4595080322247
10.561100000000017,0.19772809328932522,2.063865594203332,1745.665894591645
10.611100000000018,0.20064232698373582,2.15965893004587,1745.8818604846495
10.661100000000019,0.20212227034235933,2.261031561137524,1746.1079636407633
10.71110000000002,0.2035568800376286,2.446780490712352,1746.3526416898344
10.76110000000002,0.19712204390092475,2.201689377203584,1746.5728106275546
10.811100000000021,0.19243069187170564,2.009502047655272,1746.7737608323202
10.861100000000022,0.19061789908392107,1.9245453723798573,1746.9662153695583
10.911100000000022,0.19131015583989042,1.896975941912286,1747.1559129637496
10.961100000000023,0.1931505350959467,1.9597003994335844,1747.351883003693
11.011100000000024,0.19595373888638182,2.0822380042931248,1747.5601068041224
11.061100000000025,0.19276493734324424,1.9689880264391604,1747.7570056067664
11.111100000000025,0.19058105466347464,1.896616152873768,1747.9466672220537
11.161100000000026,0.19016671961282794,1.8903663993974318,1748.1357038619935
11.211100000000027,0.1915487437018219,1.9380885868692568,1748.3295127206804
11.261100000000027,0.19054709650536994,1.8891041583091996,1748.5184231365113
11.311100000000028,0.19024232469753324,1.8760569213480052,1748.7060288286461
11.361100000000029,0.19109828199320597,1.9112717699916488,1748.8971560056452
11.41110000000003,0.19316927297915545,2.0049788456508413,1749.0976538902103
11.46110000000003,0.19121914208380864,1.9240266145353477,1749.2900565516638
11.511100000000031,0.1901703919623839,1.881572916263275,1749.4782138432902
11.561100000000032,0.1905722942685854,1.8976460816238483,1749.6679784514527
11.611100000000032,0.19244782186992618,1.9684642214867778,1749.8648248736013
11.661100000000033,0.19090784954642903,1.9040836549363642,1750.0552332390948
11.711100000000034,0.19016621669301467,1.8766641619110054,1750.242899655286
11.761100000000035,0.19073272672406816,1.902440933372921,1750.4331437486233
11.811100000000035,0.1926476010486371,1.9841924647366596,1750.6315629950968
11.861100000000036,0.191004246682487,1.912929902551478,1750.822855985352
11.911100000000037,0.19018054470826992,1.879962741040252,1751.010852259456
11.961100000000037,0.19070443740708332,1.9004201414657622,1751.2008942736027
12.011100000000038,0.19263305361151856,1.9749227220413454,1751.3983865458067
12.061100000000039,0.19101554738174994,1.907700330672605,1751.589156578874
12.11110000000004,0.190190739500193,1.8777351655896548,1751.776930095433
12.16110000000004,0.1906850971499033,1.9003566858644756,1751.9669657640195
12.211100000000041,0.1925559811155799,1.9794998560534445,1752.164915749625
12.261100000000042,0.1909646148458039,1.9105272416980899,1752.3559684737947
12.311100000000042,0.19020092161530738,1.8796269095554616,1752.5439311647503
12.361100000000043,0.19077890843527845,1.9029463455000497,1752.7342257993002
12.411100000000044,0.19274205349767037,1.9810603579274986,1752.932331835093
12.461100000000044,0.19107011082065511,1.911233936681472,1753.1234552287613
12.511100000000045,0.1902092758950633,1.8809098186200375,1753.3115462106232
12.561100000000046,0.19071108487962438,1.9027769468206874,1753.5018239053052
12.611100000000047,0.19265852169560413,1.9808148408446404,1753.6999053893896
12.661100000000047,0.19103262099819593,1.9114867354339613,1753.891054062933
12.711100000000048,0.19022459719946247,1.8803747870661551,1754.0790915416396
12.761100000000049,0.19076036184490222,1.9030677283471387,1754.2693983144743
12.81110000000005,0.19268289627162194,1.9807065538382467,1754.4674689698581
12.86110000000005,0.19105627258661767,1.9114527802570371,1754.6586142478839
12.91110000000005,0.1902337648634519,1.8804693224261908,1754.8466611801264
12.961100000000052,0.19074983834188342,1.9024021483836189,1755.0369013949648
13.011100000000052,0.19267282031028127,1.9802793038175326,1755.2349293253467
13.061100000000053,0.19104805011194306,1.9112850145098712,1755.4260578267977
