t [s],error [m],run_obj,accum_obj
0.0001,4.242640687119285,1824.6499999999994,182.46499999999995
0.0011,4.242576370754703,1824.5954261686145,364.9245426168614
0.0111,4.241868770648042,1823.9950667399128,547.3240492908527
0.0611,4.2383325372089455,1820.996269596402,729.4236762504929
0.1111,4.234799254336492,1818.002472452891,911.2239234957821
0.16110000000000002,4.231268929422213,1815.01367530938,1092.72529102672
0.2111,4.22774156987613,1812.0298781658687,1273.928278843307
0.2611,4.224217183126783,1809.0510810223575,1454.8333869455428
0.3111,4.220695776621252,1806.0772838788473,1635.4411153334274
0.3611,4.21717735782518,1803.1084867353363,1815.751964006961
0.41109999999999997,4.213661934222803,1800.1446895918255,1995.7664329661436
0.46109999999999995,4.210149513316973,1797.1858924483147,2175.4850222109753
0.5111,4.20664010262918,1794.2320953048036,2354.908231741456
0.5611,4.203133709699577,1791.2832981612926,2534.036561557585
0.6111000000000001,4.199630342087005,1788.3395010177812,2712.8705116593633
0.6611000000000001,4.196130007369017,1785.4007038742704,2891.4105820467903
0.7111000000000002,4.192632713141899,1782.4669067307602,3069.6572727198663
0.7611000000000002,4.189138467020694,1779.5381095872488,3247.611083678591
0.8111000000000003,4.185647276639227,1776.6143124437378,3425.272514922965
0.8611000000000003,4.1821591496501265,1773.695515300227,3602.642066452988
0.9111000000000004,4.178674093724846,1770.781718156716,3779.7202382686596
0.9611000000000004,4.175192116553686,1767.8729210132044,3956.50753036998
1.0111000000000003,4.171713225845821,1764.9691238696944,4133.004442756949
1.0611000000000004,4.168237429329312,1762.070326726183,4309.211475429567
1.1111000000000004,4.164764734751138,1759.1765295826715,4485.1291283878345
1.1611000000000005,4.161295149877212,1756.2877324391604,4660.75790163175
1.2111000000000005,4.157828682492402,1753.40393529565,4836.098295161315
1.2611000000000006,4.154365340400552,1750.525138152139,5011.150808976529
1.3111000000000006,4.150905131424505,1747.6513410086284,5185.9159430773925
1.3611000000000006,4.14744806340612,1744.7825438651178,5360.394197463905
1.4111000000000007,4.143994144206295,1741.9187467216063,5534.586072136065
1.4611000000000007,4.140543381704985,1739.0599495780955,5708.4920670938745
1.5111000000000008,4.137095783801222,1736.2061524345847,5882.112682337333
1.5611000000000008,4.1336513584131325,1733.3573552910732,6055.448417866441
1.6111000000000009,4.13021011347796,1730.5135581475627,6228.4997736811965
1.661100000000001,4.126772056952082,1727.6747610040518,6401.267249781602
1.711100000000001,4.1233371968110255,1724.8409638605406,6573.751346167656
1.761100000000001,4.119905541049491,1722.0121667170295,6745.952562839359
1.811100000000001,4.116477097681364,1719.1883695735185,6917.871399796712
1.861100000000001,4.113051874739739,1716.369572430008,7089.508357039713
1.9111000000000011,4.1096298802769295,1713.5557752864972,7260.863934568362
1.9611000000000012,4.106211122364492,1710.746978142986,7431.938632382661
2.011100000000001,4.1027956090932385,1707.9431809994755,7602.732950482608
2.061100000000001,4.099383348573251,1705.1443838559637,7773.247388868205
2.111100000000001,4.095974348933906,1702.3505867124534,7943.482447539451
2.1611000000000007,4.092568618323879,1699.5617895689427,8113.438626496345
2.2111000000000005,4.089166164911169,1696.7779924254316,8283.116425738888
2.2611000000000003,4.085766996883107,1693.9991952819203,8452.51634526708
2.3111,4.082371122446377,1691.225398138409,8621.638885080922
2.3611,4.078978549827026,1688.4566009948987,8790.484545180412
2.4111,4.0755892872704775,1685.6928038513881,8959.05382556555
2.4610999999999996,4.072203343041549,1682.9340067078767,9127.347226236338
2.5110999999999994,4.068820725424463,1680.1802095643654,9295.365247192774
2.5610999999999993,4.065441442722862,1677.4314124208543,9463.108388434859
2.611099999999999,4.062065503259818,1674.687615277344,9630.577149962593
2.661099999999999,4.058692915377847,1671.9488181338327,9797.772031775978
2.7110999999999987,4.055323687438922,1669.2150209903218,9964.69353387501
2.7610999999999986,4.051957827824484,1666.486223846811,10131.34215625969
2.8110999999999984,4.048595344935451,1663.7624267033,10297.718398930021
2.861099999999998,4.045236247192232,1661.043629559789,10463.822761886
2.911099999999998,4.041880543034737,1658.3298324162781,10629.655745127628
2.961099999999998,4.038528240922387,1655.621035272767,10795.217848654904
3.0110999999999977,4.035179349334124,1652.9172381292562,10960.509572467829
3.0610999999999975,4.0318338767684185,1650.2184409857457,11125.531416566404
3.1110999999999973,4.028491831743282,1647.5246438422344,11290.283880950628
3.161099999999997,4.025153222796274,1644.8358466987231,11454.7674656205
3.211099999999997,4.021818058484511,1642.152049555212,11618.98267057602
3.261099999999997,4.018486347384674,1639.4732524117019,11782.92999581719
3.3110999999999966,4.015158098093013,1636.79945526819,11946.60994134401
3.3610999999999964,4.011833319225364,1634.1306581246802,12110.023007156478
3.4110999999999962,4.008512019417141,1631.466860981169,12273.169693254595
3.461099999999996,4.005194207323358,1628.8080638376584,12436.05049963836
3.511099999999996,4.001879891618621,1626.1542666941466,12598.665926307774
3.5610999999999957,3.998569080997146,1623.5054695506362,12761.016473262838
3.6110999999999955,3.995261784172753,1620.861672407125,12923.10264050355
3.6610999999999954,3.991958009878879,1618.222875263614,13084.924928029912
3.711099999999995,3.9886577668685783,1615.5890781201035,13246.483835841922
3.761099999999995,3.985361063914526,1612.9602809765922,13407.77986393958
3.811099999999995,3.982067909809025,1610.3364838330815,13568.81351232289
3.8610999999999946,3.9787783133640033,1607.7176866895704,13729.585280991847
3.9110999999999945,3.9754922834110236,1605.1038895460595,13890.095669946453
3.9610999999999943,3.972209828801279,1602.4950924025486,14050.345179186708
4.011099999999995,3.968930958405598,1599.8912952590379,14210.334308712612
4.061099999999994,3.965655681114444,1597.2924981155263,14370.063558524165
4.111099999999994,3.962384005837919,1594.6987009720153,14529.533428621367
4.161099999999994,3.9591159415057606,1592.1099038285045,14688.744419004219
4.211099999999994,3.955851497067343,1589.5261066849937,14847.697029672718
4.261099999999994,3.9525906814916754,1586.9473095414826,15006.391760626866
4.3110999999999935,3.949333503767404,1584.373512397972,15164.829111866664
4.361099999999993,3.946079972902806,1581.8047152544611,15323.00958339211
4.411099999999993,3.942830097925791,1579.24091811095,15480.933675203205
4.461099999999993,3.9395838878838956,1576.6821209674392,15638.601887299948
4.511099999999993,3.9363413518442836,1574.1283238239282,15796.014719682342
4.561099999999993,3.9331024988937386,1571.5795266804168,15953.172672350383
4.611099999999992,3.9298673381386635,1569.0357295369065,16110.076245304073
4.661099999999992,3.926635878705072,1566.4969323933954,16266.725938543414
4.711099999999992,3.9234081297385877,1563.9631352498843,16423.122252068402
4.761099999999992,3.9201841004044358,1561.4343381063734,16579.26568587904
4.811099999999992,3.9169637998874363,1558.9105409628621,16735.156739975326
4.8610999999999915,3.913747237392,1556.3917438193514,16890.795914357263
4.911099999999991,3.91053442214212,1553.8779466758403,17046.18370902485
4.961099999999991,3.9073253633813625,1551.3691495323294,17201.32062397808
5.011099999999991,3.9041200703728602,1548.8653523888186,17356.207159216963
5.061099999999991,3.9009185523993035,1546.3665552453078,17510.843814741493
5.111099999999991,3.8977208187629304,1543.8727581017968,17665.23109055167
5.1610999999999905,3.8945268787855163,1541.3839609582853,17819.3694866475
5.21109999999999,3.8913367418083658,1538.9001638147745,17973.259503028978
5.26109999999999,3.8881504171922976,1536.4213666712637,18126.901639696105
5.31109999999999,3.884967914317637,1533.947569527753,18280.29639664888
5.36109999999999,3.8817892425842,1531.4787723842417,18433.444273887304
5.41109999999999,3.8786144114112853,1529.0149752407308,18586.345771411376
5.461099999999989,3.875443430237655,1526.55617809722,18739.0013892211
5.511099999999989,3.8722763085215255,1524.1023809537094,18891.41162731647
5.561099999999989,3.869113055740551,1521.6535838101984,19043.576985697488
5.611099999999989,3.865953681391808,1519.209786666687,19195.497964364156
5.661099999999989,3.862798194991781,1516.7709895231762,19347.175063316474
5.7110999999999885,3.8596466060763457,1514.3371923796656,19498.608782554442
5.761099999999988,3.8564989242007504,1511.9083952361545,19649.79962207806
5.811099999999988,3.8533551589396007,1509.4845980926436,19800.748081887323
5.861099999999988,3.85021531988684,1507.0658009491324,19951.454661982236
5.911099999999988,3.847079416655733,1504.6520038056212,20101.919862362796
5.961099999999988,3.843947458878842,1502.2432066621107,20252.144183029006
6.0110999999999875,3.8408194562080107,1499.8394095185997,20402.128123980867
6.061099999999987,3.8376954183143415,1497.440612375089,20551.872185218377
6.111099999999987,3.8345753548881754,1495.0468152315777,20701.376866741535
6.161099999999987,3.8314592756390704,1492.6580180880671,20850.642668550343
6.211099999999987,3.8283471902957755,1490.2742209445557,20999.6700906448
6.261099999999987,3.8252391086062123,1487.895423801045,21148.459633024904
6.311099999999986,3.822135040337447,1485.5216266575337,21297.011795690658
6.361099999999986,3.8190349952756693,1483.152829514023,21445.32707864206
6.411099999999986,3.8159389832261628,1480.7890323705121,21593.405981879114
6.461099999999986,3.8128470140132835,1478.4302352270013,21741.249005401813
6.511099999999986,3.80975909748043,1476.07643808349,21888.85664921016
6.5610999999999855,3.8066752434900186,1473.7276409399794,22036.229413304158
6.611099999999985,3.803595461923453,1471.3838437964685,22183.367797683804
6.661099999999985,3.800519762681096,1469.0450466529576,22330.2723023491
6.711099999999985,3.7974481556822424,1466.7112495094464,22476.943427300048
6.761099999999985,3.7943806508650866,1464.3824523659357,22623.38167253664
6.811099999999985,3.791317258186691,1462.0586552224247,22769.587538058884
6.861099999999984,3.788257987622957,1459.7398580789134,22915.561523866774
6.911099999999984,3.7852028491685923,1457.4260609354026,23061.304129960314
6.961099999999984,3.782151852837075,1455.117263791892,23206.815856339505
7.011099999999984,3.779105008660623,1452.8134666483804,23352.09720300434
7.061099999999984,3.7760623266901594,1450.51466950487,23497.14866995483
7.1110999999999835,3.7730238169952743,1448.2208723613587,23641.970757190964
7.161099999999983,3.7699894896641926,1445.932075217848,23786.56396471275
7.211099999999983,3.766959354803735,1443.648278074337,23930.928792520182
7.261099999999983,3.76393342253928,1441.369480930826,24075.065740613267
7.311099999999983,3.760911703014729,1439.0956837873148,24218.975308991998
7.361099999999983,3.7578942063924634,1436.826886643804,24362.657997656377
7.4110999999999825,3.754880942853306,1434.5630895002935,24506.114306606407
7.461099999999982,3.7518719225964823,1432.3042923567825,24649.344735842085
7.511099999999982,3.7488671558395765,1430.0504952132717,24792.34978536341
7.561099999999982,3.7458666528184907,1427.80169806976,24935.129955170385
7.611099999999982,3.7428704237874033,1425.5579009262494,25077.68574526301
7.661099999999982,3.739878479018721,1423.319103782738,25220.017655641284
7.711099999999981,3.7368908288030407,1421.0853066392276,25362.126186305206
7.761099999999981,3.7339074834490966,1418.8565094957164,25504.011837254777
7.811099999999981,3.730928453283721,1416.6327123522058,25645.67510849
7.861099999999981,3.727953748651792,1414.4139152086948,25787.116500010867
7.911099999999981,3.7249833799161896,1412.200118065184,25928.336511817386
7.9610999999999805,3.722017357457744,1409.9913209216727,26069.335643909555
8.011099999999981,3.719055691675189,1407.787523778162,26210.114396287372
8.061099999999982,3.716098392985109,1405.588726634651,26350.67326895084
8.111099999999983,3.7131454718218895,1403.3949294911401,26491.012761899954
8.161099999999983,3.7101969386376634,1401.206132347629,26631.133375134716
8.211099999999984,3.7072528039022616,1399.0223352041182,26771.03560865513
8.261099999999985,3.704313078103155,1396.8435380606072,26910.71996246119
8.311099999999985,3.7013777717454026,1394.6697409170963,27050.1869365529
8.361099999999986,3.698446895351595,1392.500943773585,27189.437030930258
8.411099999999987,3.6955204594617985,1390.3371466300744,27328.470745593266
8.461099999999988,3.6925984746334977,1388.1783494865633,27467.28858054192
8.511099999999988,3.6896809514415367,1386.0245523430524,27605.891035776225
8.561099999999989,3.6867679004780616,1383.8757551995416,27744.27861129618
8.61109999999999,3.6838593323524593,1381.7319580560309,27882.451807101785
8.66109999999999,3.6809552576912963,1379.5931609125198,28020.411123193036
8.711099999999991,3.6780556871382584,1377.4593637690084,28158.157059569938
8.761099999999992,3.6751606313540877,1375.3305666254976,28295.690116232487
8.811099999999993,3.672270101016518,1373.2067694819868,28433.010793180685
8.861099999999993,3.669384106820211,1371.0879723384758,28570.11959041453
8.911099999999994,3.6665026594766914,1368.9741751949653,28707.017007934028
8.961099999999995,3.6636257697142782,1366.865378051454,28843.703545739172
9.011099999999995,3.660753448278022,1364.7615809079427,28980.179703829966
9.061099999999996,3.657885705929632,1362.662783764432,29116.44598220641
9.111099999999997,3.655022553447408,1360.5689866209211,29252.502880868502
9.161099999999998,3.652164001626173,1358.4801894774098,29388.350899816243
9.211099999999998,3.6493100612771987,1356.396392333899,29523.99053904963
9.261099999999999,3.646460743228135,1354.3175951903884,29659.422298568672
9.3111,3.6436160583229364,1352.2437980468774,29794.64667837336
9.3611,3.640776017421789,1350.1750009033665,29929.664178463696
9.411100000000001,3.6379406314010336,1348.1112037598552,30064.475298839683
9.461100000000002,3.6351099111530925,1346.0524066163441,30199.080539501316
9.511100000000003,3.6322838675863887,1343.9986094728336,30333.4804004486
9.561100000000003,3.6294625116252717,1341.9498123293226,30467.675381681533
9.611100000000004,3.6266458542099356,1339.9060151858114,30601.665983200113
9.661100000000005,3.6238339062963423,1337.8672180423007,30735.452705004343
9.711100000000005,3.621026678856136,1335.8334208987897,30869.03604709422
9.761100000000006,3.618224182876565,1333.8046237552787,31002.41650946975
9.811100000000007,3.615426429360398,1331.780826611768,31135.594592130925
9.861100000000008,3.6126334293258386,1329.7620294682567,31268.57079507775
9.911100000000008,3.6098451938064406,1327.7482323247457,31401.345618310224
9.961100000000009,3.6070617338510234,1325.7394351812352,31533.91956182835
10.01110000000001,3.6042830605235823,1323.7356380377244,31666.29312563212
10.06110000000001,3.6015091849032026,1321.7368408942132,31798.466809721544
10.111100000000011,3.598740118083969,1319.743043750702,31930.441114096615
10.161100000000012,3.5959758711748764,1317.7542466071911,32062.216538757333
10.211100000000012,3.5932164552997365,1315.7704494636803,32193.7935837037
10.261100000000013,3.590461881597087,1313.791652320169,32325.172748935718
10.311100000000014,3.5877121612200975,1311.8178551766584,32456.354534453385
10.361100000000015,3.584967305336476,1309.849058033147,32587.3394402567
10.411100000000015,3.582227325128371,1307.8852608896361,32718.127966345663
10.461100000000016,3.5794922317922766,1305.9264637461254,32848.72061272027
10.511100000000017,3.5767620365389345,1303.9726666026147,32979.11787938054
10.561100000000017,3.574036750593233,1302.0238694591037,33109.320266326446
10.611100000000018,3.5713163851941103,1300.0800723155928,33239.32827355801
10.661100000000019,3.5686009515944503,1298.1412751720816,33369.142401075216
10.71110000000002,3.5658904610609827,1296.207478028571,33498.763148878075
10.76110000000002,3.5631849248741774,1294.2786808850599,33628.19101696658
10.811100000000021,3.560484354328142,1292.3548837415485,33757.426505340736
10.861100000000022,3.557788760730516,1290.4360865980382,33886.47011400054
10.911100000000022,3.555098155402361,1288.522289454527,34015.322342946
10.961100000000023,3.5524125496780576,1286.613492311016,34143.9836921771
11.011100000000024,3.549731954905194,1284.709695167505,34272.454661693846
11.061100000000025,3.5470563824444543,1282.8108980239938,34400.73575149624
11.111100000000025,3.544385843669511,1280.917100880483,34528.82746158429
11.161100000000026,3.5417203499669085,1279.028303736972,34656.73029195799
11.211100000000027,3.539059912735953,1277.144506593461,34784.444742617336
11.261100000000027,3.536404543388596,1275.2657094499502,34911.97131356233
11.311100000000028,3.5337542533493176,1273.3919123064395,35039.31050479298
11.361100000000029,3.5311090540550123,1271.5231151629284,35166.46281630927
11.41110000000003,3.528468956954868,1269.6593180194175,35293.42874811121
11.46110000000003,3.525833973510248,1267.8005208759066,35420.2088001988
11.511100000000031,3.52320411519457,1265.9467237323954,35546.80347257204
11.561100000000032,3.5205793934931853,1264.0979265888843,35673.21326523093
11.611100000000032,3.517959819903254,1262.2541294453733,35799.438678175466
11.661100000000033,3.5153454059336227,1260.4153323018625,35925.48021140565
11.711100000000034,3.512736163104698,1258.5815351583517,36051.33836492149
11.761100000000035,3.510132102948322,1256.7527380148406,36177.01363872297
11.811100000000035,3.5075332370076406,1254.92894087133,36302.506532810105
11.861100000000036,3.50493957683698,1253.1101437278187,36427.81754718289
11.911100000000037,3.502351134001712,1251.296346584308,36552.947181841315
11.961100000000037,3.4997679200781255,1249.4875494407968,36677.8959367854
12.011100000000038,3.4971899466532927,1247.6837522972858,36802.66431201513
12.061100000000039,3.4946172253249355,1245.8849551537749,36927.2528075305
12.11110000000004,3.492049767701291,1244.091158010264,37051.66192333153
12.16110000000004,3.4894875854009757,1242.3023608667534,37175.8921594182
12.211100000000041,3.4869306900528465,1240.5185637232419,37299.94401579053
12.261100000000042,3.4843790932958645,1238.739766579731,37423.8179924485
12.311100000000042,3.481832806778953,1236.9659694362201,37547.51458939212
12.361100000000043,3.4792918421608574,1235.197172292709,37671.03430662139
12.411100000000044,3.4767562111100028,1233.433375149198,37794.37764413631
12.461100000000044,3.474225925304351,1231.6745780056874,37917.54510193688
12.511100000000045,3.4717009964312546,1229.9207808621766,38040.53718002309
12.561100000000046,3.4691814361873115,1228.1719837186658,38163.35437839496
12.611100000000047,3.4666672562782175,1226.4281865751543,38285.99719705247
12.661100000000047,3.4641584684186193,1224.6893894316433,38408.46613599564
12.711100000000048,3.4616550843319627,1222.9555922881325,38530.76169522445
12.761100000000049,3.4591571157503407,1221.2267951446217,38652.88437473891
12.81110000000005,3.4566645744143454,1219.5029980011107,38774.83467453902
12.86110000000005,3.4541774720729097,1217.7842008575997,38896.61309462478
12.91110000000005,3.451695820483156,1216.0704037140888,39018.22013499619
12.961100000000052,3.449219631410238,1214.361606570578,39139.65629565325
13.011100000000052,3.4467489166271843,1212.657809427067,39260.922076595954
13.061100000000053,3.4442836879147394,1210.959012283556,39382.01797782431
13.111100000000054,3.441823957061205,1209.265215140045,39502.944499338315
13.161100000000054,3.4393697358622757,1207.5764179965342,39623.70214113797
13.211100000000055,3.4369210361208813,1205.8926208530231,39744.29140322327
13.261100000000056,3.4344778696470186,1204.2138237095126,39864.71278559422
